# PandaX
# https://arxiv.org/pdf/2408.00664
# mass [GeV]    sigma_SD_neutron [cm^2]
4.976615826128363	1.0034806960058023e-38
5.160750582253096	8.22122825369049e-39
5.266760869161395	7.345191589340048e-39
5.357433211461734	6.600342322386237e-39
5.488295009605411	5.7705165425230686e-39
5.745942177544593	4.412217123897018e-39
6.327511437960589	2.4115564485479636e-39
6.4190889761477425	2.1438143231906215e-39
6.598549955040377	1.8793121732728965e-39
6.724345450926446	1.638932414377914e-39
6.878755793617304	1.4556471247760175e-39
7.062049429041398	1.2573734400485669e-39
7.216119569152498	1.0946842089867295e-39
7.323090151274914	9.761828411931303e-40
7.453550055423327	8.70105748144175e-40
7.586334085895302	7.759667857973786e-40
7.721483646700782	6.920129581317787e-40
7.861957199068324	6.121795192421626e-40
8.013800616136777	5.42119417610945e-40
8.122404725380106	4.843126411526203e-40
8.289666341619315	4.303945657366001e-40
8.45078013970874	3.825789719416605e-40
8.630528342979561	3.353831399494144e-40
8.788981747838111	2.9963098286379197e-40
8.945556321235312	2.719288494044917e-40
9.104920250412043	2.4626514334525617e-40
9.267123227380843	2.214918052382997e-40
9.432215829411033	1.989994733960122e-40
9.600249534799442	1.7822344452075375e-40
9.77127673892211	1.5995530362558524e-40
9.945350770571913	1.4317965907032376e-40
10.839337614133683	8.916081362663867e-41
11.547356683143962	6.538702387268449e-41
12.4044730711305	4.348428614962544e-41
12.652352998855893	3.8265001428242434e-41
13.240428734874895	3.0516948186526087e-41
13.520445022362964	2.72874734985248e-41
13.823237131769375	2.415989098822949e-41
14.147392686947496	2.1577533709898363e-41
14.471842727249213	1.9215273829846904e-41
14.804063621631244	1.692053982992915e-41
15.129062169285183	1.5130277941280173e-41
15.6896901296968	1.36581625921689e-41
16.11512757375513	1.2333438101501835e-41
16.640907469310005	1.1043135881581991e-41
17.200825375962008	9.792650367835366e-42
17.858795859531607	8.748614930538446e-42
18.402036181800213	7.832595515848627e-42
19.053338196640706	7.009446587446309e-42
19.632914874914416	6.280972081591711e-42
20.38314919546828	5.724219922589351e-42
21.688362268053925	5.2550762179752524e-42
23.212510430684492	4.756113160803814e-42
24.09415963906394	4.431155113053857e-42
25.55491394604079	4.079450165987135e-42
27.371430926172373	3.717843290816959e-42
28.741835058131574	3.4192923632093685e-42
30.61022464600903	3.210872138724592e-42
32.65768683638748	3.0866089326395306e-42
34.842100044587866	2.972307066154944e-42
37.17262467482698	2.8609968005116153e-42
39.6590338540801	2.7658252746260737e-42
42.311754415990585	2.745506655554899e-42
45.141910626118694	2.745506655554899e-42
48.161370831892484	2.745506655554899e-42
51.382797232889246	2.745506655554899e-42
54.81969898016013	2.7538550056763012e-42
58.48648882727218	2.7718299068189773e-42
62.39854357063533	2.8424436654392952e-42
66.57226853257265	2.9748865494075266e-42
71.02516635754614	3.108103566988102e-42
75.77591041003626	3.192818563676676e-42
80.84442308187259	3.3256821854555204e-42
86.2519593373987	3.495770850483095e-42
92.02119584682126	3.644401317957895e-42
98.17632608152672	3.817521319351151e-42
104.74316177015012	4.007546613338325e-42
111.74924114085586	4.2161643257659297e-42
119.22394440374802	4.4202775481236714e-42
127.1986169576877	4.666544619396959e-42
135.70670083819107	4.920125773174741e-42
144.78387495763752	5.1695179816752584e-42
154.46820472588993	5.5003020660759597e-42
164.8003016787665	5.811779894030007e-42
175.82349378376887	6.16491480283886e-42
187.58400713725197	6.474594255998454e-42
200.13115981498552	6.811637133575402e-42
213.517568689028	7.181783129023186e-42
227.79937007820257	7.565477332233684e-42
243.0364551574837	7.980047629983698e-42
259.2927211134878	8.490670236987905e-42
276.63633909929763	9.085048210633249e-42
295.14004011229787	9.716819414701886e-42
314.88141999385635	1.0397032315778718e-41
335.9432648298809	1.1120038454281335e-41
358.41389811682586	1.190364368293339e-41
382.3875511490005	1.2736942281721997e-41
407.9647581804119	1.3575478288347748e-41
435.2527780182599	1.4387864077019288e-41
464.366043816058	1.5235642695623294e-41
495.42664295259345	1.6147376289409484e-41
528.5648290091211	1.7076596531728492e-41
563.9195679917742	1.8067124449899148e-41
601.6391210898023	1.9090251655173684e-41
641.8816664134446	2.027657860808416e-41
684.8159623187171	2.1527288484769762e-41
730.6220551007907	2.282542563316922e-41
779.4920340236832	2.419134814513566e-41
831.6308368525206	2.5627892367587754e-41
887.2571092663796	2.7161520510244235e-41
946.6041217556922	2.87744411762568e-41
1009.9207478492505	3.0549320383979977e-41
1077.4725077730268	3.258879077268838e-41
1149.5426819174413	3.476441605499573e-41
1226.4334987824207	3.711746996983991e-41
1308.4674023819473	3.9595429543269213e-41
1395.988404422977	4.227547399876392e-41
1489.3635269291572	4.5117346100347293e-41
1588.9843413590088	4.815025655769129e-41
1695.2686106729257	5.136476415471201e-41
1808.6620412350487	5.484142428868523e-41
1929.6401518966536	5.852801367386086e-41
2058.7102680991375	6.246242560323757e-41
2196.4136493589162	6.660351826672936e-41
2343.327759055912	7.095757462528865e-41
2500.0686860440705	7.582613569591871e-41
2667.293728238975	8.102873984825683e-41
2845.7041490169513	8.647571166004281e-41
3036.048117984681	9.228884370058313e-41
3239.1238484515516	9.849275025424295e-41
3455.782944761789	1.0506811903892197e-40
3686.933973523578	1.1217972846272699e-40
3933.546273711173	1.1972075427572542e-40
4196.6540216178055	1.2776870831088446e-40
4477.360567705908	1.3635766765915015e-40
4776.843063541313	1.4546089555321285e-40
5096.357398214697	1.553738943150245e-40
5437.243464951242	1.6574664410621047e-40
5800.930779994232	1.7688858337412163e-40
6188.944477325567	1.887795140398362e-40
6602.911704362162	2.0146978533793742e-40
7044.5684454488855	2.1501313111522226e-40
7515.766801762483	2.294668973534943e-40
8018.482758155065	2.4489228498711035e-40
8554.824469507534	2.6135460904332417e-40
9127.041101342174	2.7904457929908606e-40
9651.937780788601	2.9494258553558507e-40
