# All limits as of 2024 
#  Mass [eV] 	 kinetic mixing
1.000000000000000021e-02 2.871122064871448266e-11
1.020960662306046561e-02 2.812049563059144679e-11
1.042360673976401760e-02 2.754192460798487025e-11
1.064209244064724148e-02 2.697525751597032043e-11
1.086515774652538346e-02 2.642024943463638787e-11
1.109289864895222737e-02 2.587666048322795989e-11
1.132541315152811416e-02 2.534425571646640418e-11
1.156280131207376022e-02 2.482280502300399145e-11
1.180516528568804902e-02 2.431208302596709134e-11
1.205260936870842549e-02 2.381186898554561598e-11
1.230524004359261590e-02 2.332194670358720051e-11
1.256316602474120796e-02 2.284210443015331695e-11
1.282649830528060503e-02 2.237213477199896434e-11
1.309535020482666991e-02 2.191183460293486042e-11
1.336983741824946531e-02 2.146100497603393253e-11
1.365007806546013856e-02 2.101945103764455855e-11
1.393619274224142807e-02 2.058698194317209045e-11
1.422830457214352591e-02 2.016341077459401593e-11
1.452653925946781159e-02 1.974855445967180330e-11
1.483102514336104467e-02 1.934223369282500122e-11
1.514189325304352018e-02 1.894427285763327848e-11
1.545927736419477720e-02 1.855449995093332602e-11
1.578331405652117284e-02 1.817274650847668447e-11
1.611414277253019750e-02 1.779884753211791383e-11
1.645190587753662601e-02 1.743264141850043837e-11
1.679674872092653051e-02 1.707396988920970653e-11
1.714881969870540174e-02 1.672267792236373863e-11
1.750827031735724404e-02 1.637861368561048919e-11
1.787525525904235316e-02 1.604162847050450693e-11
1.824993244816152521e-02 1.571157662823335335e-11
1.863246311931559748e-02 1.538831550666651496e-11
1.902301188668944695e-02 1.507170538869977738e-11
1.942174681489025612e-02 1.476160943186753478e-11
1.982883949127071249e-02 1.445789360919819990e-11
2.024446509976803726e-02 1.416042665128615777e-11
2.066880249629082095e-02 1.386907998955565257e-11
2.110203428568595621e-02 1.358372770069194285e-11
2.154434690031883232e-02 1.330424645221604832e-11
2.199593068030074663e-02 1.303051544917872062e-11
2.245697995539773853e-02 1.276241638195173208e-11
2.292769312865648723e-02 1.249983337509306306e-11
2.340827276178293267e-02 1.224265293726417580e-11
2.389892566231050300e-02 1.199076391217797787e-11
2.439986297259550199e-02 1.174405743055552116e-11
2.491130026067788633e-02 1.150242686307167278e-11
2.543345761304649510e-02 1.126576777426866318e-11
2.596655972934871007e-02 1.103397787741786447e-11
2.651083601908538895e-02 1.080695699031048760e-11
2.706652070033241375e-02 1.058460699195742706e-11
2.763385290053169824e-02 1.036683178018045081e-11
2.821307675939472084e-02 1.015353723007570866e-11
2.880444153396296419e-02 9.944631153331837931e-12
2.940820170587063812e-02 9.740023258385306564e-12
3.002461709085549324e-02 9.539625111395132089e-12
3.065395295056526706e-02 9.343350098020938299e-12
3.129648010670751934e-02 9.151113385987227727e-12
3.195247505759211959e-02 8.962831888417903068e-12
3.262222009711669701e-02 8.778424227925159532e-12
3.330600343624588733e-02 8.597810701437390392e-12
3.400411932703706341e-02 8.420913245750411877e-12
3.471686818926561502e-02 8.247655403787808041e-12
3.544455673970435539e-02 8.077962291555283398e-12
3.618749812411280187e-02 7.911760565774920860e-12
3.694601205199302130e-02 7.748978392185523629e-12
3.772042493416997294e-02 7.589545414494840039e-12
3.851107002325571127e-02 7.433392723970908207e-12
3.931828755705769896e-02 7.280452829658891395e-12
4.014242490499322219e-02 7.130659629210706380e-12
4.098383671757261509e-02 6.983948380314944229e-12
4.184288507901580412e-02 6.840255672714349419e-12
4.271993966306778662e-02 6.699519400799303424e-12
4.361537789208005944e-02 6.561678736765048859e-12
4.452958509942655380e-02 6.426674104321204508e-12
4.546295469532399269e-02 6.294447152942320287e-12
4.641588833612777382e-02 6.164940732647966740e-12
4.738879609717653457e-02 6.038098869301973264e-12
4.838209664925956915e-02 5.913866740419749105e-12
4.939621743878321036e-02 5.792190651473384520e-12
5.043159487171358646e-02 5.673018012684251309e-12
5.148867450137492585e-02 5.556297316293195962e-12
5.256791122018421997e-02 5.441978114298165769e-12
5.366976945540476163e-02 5.330010996650109155e-12
5.479472336900287344e-02 5.220347569897367037e-12
5.594325706169377826e-02 5.112940436269461071e-12
5.711586478126431943e-02 5.007743173191323588e-12
5.831305113526221579e-02 4.904710313218809641e-12
5.953533130814370189e-02 4.803797324387241181e-12
6.078323128297229844e-02 4.704960590964167896e-12
6.205728806776500406e-02 4.608157394598153696e-12
6.335804992658250478e-02 4.513345895855406699e-12
6.468607661546327270e-02 4.420485116136377541e-12
6.604193962330305590e-02 4.329534919964234337e-12
6.742622241778342684e-02 4.240455997637931236e-12
6.883952069645496441e-02 4.153209848242093922e-12
7.028244264308348976e-02 4.067758763006472146e-12
7.175560918936928212e-02 3.984065809007850666e-12
7.325965428215229502e-02 3.902094813207123443e-12
7.479522515621821188e-02 3.821810346814964527e-12
7.636298261282241373e-02 3.743177709979088023e-12
7.796360130405233235e-02 3.666162916786567737e-12
7.959777002314985528e-02 3.590732680574799003e-12
8.126619200091945994e-02 3.516854399544539350e-12
8.296958520834907258e-02 3.444496142669102848e-12
8.470868266557401993e-02 3.373626635893394432e-12
8.648423275731721704e-02 3.304215248616897788e-12
8.829699955494091368e-02 3.236231980454837868e-12
9.014776314524917955e-02 3.169647448271594873e-12
9.203731996618221001e-02 3.104432873481034644e-12
9.396648314954690606e-02 3.040560069608067367e-12
9.593608287093141618e-02 2.978001430106121346e-12
9.794696670695395013e-02 2.916729916425332467e-12
1.000000000000000056e-01 2.856719046326101771e-12
1.020960662306046457e-01 2.797942882433224450e-12
1.042360673976401725e-01 2.740376021025449875e-12
1.064209244064724114e-01 2.683993581055706668e-12
1.086515774652538346e-01 2.628771193397224027e-12
1.109289864895222771e-01 2.574684990310960602e-12
1.132541315152811451e-01 2.521711595129636365e-12
1.156280131207376022e-01 2.469828112154114820e-12
1.180516528568804902e-01 2.419012116757613134e-12
1.205260936870842653e-01 2.369241645693515829e-12
1.230524004359261625e-01 2.320495187602650475e-12
1.256316602474120692e-01 2.272751673715776797e-12
1.282649830528060642e-01 2.225990468747466716e-12
1.309535020482666956e-01 2.180191361977291123e-12
1.336983741824946670e-01 2.135334558514517145e-12
1.365007806546013891e-01 2.091400670742526571e-12
1.393619274224142668e-01 2.048370709939302564e-12
1.422830457214352695e-01 2.006226078070236930e-12
1.452653925946780500e-01 1.964948559749886190e-12
1.483102514336104294e-01 1.924520314369066436e-12
1.514189325304352018e-01 1.884923868383934230e-12
1.545927736419477616e-01 1.846142107763753296e-12
1.578331405652117214e-01 1.808158270593971834e-12
1.611414277253019056e-01 1.770955939831564295e-12
1.645190587753662392e-01 1.734519036209393281e-12
1.679674872092653259e-01 1.698831811286560957e-12
1.714881969870540035e-01 1.663878840641783539e-12
1.750827031735724126e-01 1.629645017206740663e-12
1.787525525904235524e-01 1.596115544736657158e-12
1.824993244816152382e-01 1.563275931415193030e-12
1.863246311931559818e-01 1.531111983590910085e-12
1.902301188668944765e-01 1.499609799642641410e-12
1.942174681489025334e-01 1.468755763971014776e-12
1.982883949127071388e-01 1.438536541113663379e-12
2.024446509976803865e-01 1.408939069981482020e-12
2.066880249629081956e-01 1.379950558213470814e-12
2.110203428568595552e-01 1.351558476647755773e-12
2.154434690031883370e-01 1.323750553906308949e-12
2.199593068030074872e-01 1.296514771091143501e-12
2.245697995539774061e-01 1.269839356589604697e-12
2.292769312865649833e-01 1.243712780986540904e-12
2.340827276178293059e-01 1.218123752081180976e-12
2.389892566231049120e-01 1.193061210006486117e-12
2.439986297259550130e-01 1.168514322448971869e-12
2.491130026067788494e-01 1.144472479966855147e-12
2.543345761304649510e-01 1.120925291404527818e-12
2.596655972934870937e-01 1.097862579401401585e-12
2.651083601908537646e-01 1.075274375993110522e-12
2.706652070033241375e-01 1.053150918303261012e-12
2.763385290053169685e-01 1.031482644323804119e-12
2.821307675939472293e-01 1.010260188782226366e-12
2.880444153396296558e-01 9.894743790937733210e-13
2.940820170587062354e-01 9.691162313969518466e-13
3.002461709085549324e-01 9.491769466706186906e-13
3.065395295056526637e-01 9.296479069309212922e-13
3.129648010670751934e-01 9.105206715065228700e-13
3.195247505759211681e-01 8.917869733904460242e-13
3.262222009711669979e-01 8.734387156669747994e-13
3.330600343624588455e-01 8.554679680120911059e-13
3.400411932703706341e-01 8.378669632658772665e-13
3.471686818926561502e-01 8.206280940754763034e-13
3.544455673970433596e-01 8.037439096071049424e-13
3.618749812411280464e-01 7.872071123257156948e-13
3.694601205199302685e-01 7.710105548409328458e-13
3.772042493416997710e-01 7.551472368178499265e-13
3.851107002325570572e-01 7.396103019514197236e-13
3.931828755705767953e-01 7.243930350030777149e-13
4.014242490499321803e-01 7.094888588983381685e-13
4.098383671757261371e-01 6.948913318841191029e-13
4.184288507901582355e-01 6.805941447445272678e-13
4.271993966306778523e-01 6.665911180739546655e-13
4.361537789208003724e-01 6.528761996062676511e-13
4.452958509942655518e-01 6.394434615989459883e-13
4.546295469532399269e-01 6.262870982710563987e-13
4.641588833612779741e-01 6.134014232939127298e-13
4.738879609717653318e-01 6.007808673333907862e-13
4.838209664925954834e-01 5.884199756427974058e-13
4.939621743878320759e-01 5.763134057052639460e-13
5.043159487171359201e-01 5.644559249246608001e-13
5.148867450137495361e-01 5.528424083639950283e-13
5.256791122018421580e-01 5.414678365303649694e-13
5.366976945540475885e-01 5.303272932054764296e-13
5.479472336900287344e-01 5.194159633207969369e-13
5.594325706169377410e-01 5.087291308764296021e-13
5.711586478126432498e-01 4.982621769028022592e-13
5.831305113526221717e-01 4.880105774643050238e-13
5.953533130814370189e-01 4.779699017039819390e-13
6.078323128297229427e-01 4.681358099284728554e-13
6.205728806776500406e-01 4.585040517323468586e-13
6.335804992658250478e-01 4.490704641610272269e-13
6.468607661546323939e-01 4.398309699115230971e-13
6.604193962330304757e-01 4.307815755701616603e-13
6.742622241778342129e-01 4.219183698865974070e-13
6.883952069645495886e-01 4.132375220833236474e-13
7.028244264308348699e-01 4.047352801999655025e-13
7.175560918936925159e-01 3.964079694716471419e-13
7.325965428215229780e-01 3.882519907407066589e-13
7.479522515621821466e-01 3.802638189011064912e-13
7.636298261282246091e-01 3.724400013748408981e-13
7.796360130405233235e-01 3.647771566196914827e-13
7.959777002314981642e-01 3.572719726676924000e-13
8.126619200091945716e-01 3.499212056936513931e-13
8.296958520834906148e-01 3.427216786131379770e-13
8.470868266557406434e-01 3.356702797093101561e-13
8.648423275731722537e-01 3.287639612879941759e-13
8.829699955494086927e-01 3.219997383604417561e-13
9.014776314524917122e-01 3.153746873531763783e-13
9.203731996618220723e-01 3.088859448443972004e-13
9.396648314954695325e-01 3.025307063263745877e-13
9.593608287093141618e-01 2.963062249933087616e-13
9.794696670695395291e-01 2.902098105541345262e-13
1.000000000000000000e+00 2.842388280697395374e-13
1.020960662306046540e+00 2.783906968141189582e-13
1.042360673976401086e+00 2.726628891589551190e-13
1.064209244064724613e+00 2.670529294811471976e-13
1.086515774652538457e+00 2.615583930928232089e-13
1.109289864895222744e+00 2.561769051933560385e-13
1.132541315152811423e+00 2.509061398429520073e-13
1.156280131207375383e+00 2.457438189573527368e-13
1.180516528568805512e+00 2.406877113232200132e-13
1.205260936870842681e+00 2.357356316337854657e-13
1.230524004359261570e+00 2.308854395443252662e-13
1.256316602474120137e+00 2.261350387470929604e-13
1.282649830528059809e+00 2.214823760652605646e-13
1.309535020482667678e+00 2.169254405655165899e-13
1.336983741824946614e+00 2.124622626889213360e-13
1.365007806546013835e+00 2.080909133996316141e-13
1.393619274224142002e+00 2.038095033511619361e-13
1.422830457214351974e+00 1.996161820697780968e-13
1.452653925946781222e+00 1.955091371547058114e-13
1.483102514336104516e+00 1.914865934947899440e-13
1.514189325304351907e+00 1.875468125012704283e-13
1.545927736419477005e+00 1.836880913563479281e-13
1.578331405652118047e+00 1.799087622772019063e-13
1.611414277253019778e+00 1.762071917951593176e-13
1.645190587753662559e+00 1.725817800496902251e-13
1.679674872092653093e+00 1.690309600969292368e-13
1.714881969870539091e+00 1.655531972324275639e-13
1.750827031735725070e+00 1.621469883278322480e-13
1.787525525904235524e+00 1.588108611812198757e-13
1.824993244816152327e+00 1.555433738807935979e-13
1.863246311931559873e+00 1.523431141816720587e-13
1.902301188668943821e+00 1.492086988955035370e-13
1.942174681489026389e+00 1.461387732926327454e-13
1.982883949127071332e+00 1.431320105165738595e-13
2.024446509976803643e+00 1.401871110105274210e-13
2.066880249629082122e+00 1.373028019556968329e-13
2.110203428568594219e+00 1.344778367211644564e-13
2.154434690031884259e+00 1.317109943250774485e-13
2.199593068030074594e+00 1.290010789069334917e-13
2.245697995539774006e+00 1.263469192107102937e-13
2.292769312865648779e+00 1.237473680786377415e-13
2.340827276178291783e+00 1.212013019553853178e-13
2.389892566231050175e+00 1.187076204024434169e-13
2.439986297259550074e+00 1.162652456225081742e-13
2.491130026067788439e+00 1.138731219936400941e-13
2.543345761304648178e+00 1.115302156130145938e-13
2.596655972934869716e+00 1.092355138500572035e-13
2.651083601908538867e+00 1.069880249087726437e-13
2.706652070033241486e+00 1.047867773990812677e-13
2.763385290053169907e+00 1.026308199169705764e-13
2.821307675939470627e+00 1.005085531610906799e-13
2.880444153396297668e+00 9.842829241732985551e-14
2.940820170587063576e+00 9.639108755912232580e-14
3.002461709085549213e+00 9.439604744371808335e-14
3.065395295056526859e+00 9.244229937265967558e-14
3.129648010670750491e+00 9.007500804900945010e-14
3.195247505759213791e+00 8.753085554969903949e-14
3.262222009711670090e+00 8.505856218290468309e-14
3.330600343624588788e+00 8.265609830027463416e-14
3.400411932703705897e+00 8.032149158051199443e-14
3.471686818926559503e+00 7.803478783865288359e-14
3.544455673970435594e+00 7.580876637742723320e-14
3.618749812411280242e+00 7.364624443587869537e-14
3.694601205199302463e+00 7.154541062581085494e-14
3.772042493416997377e+00 6.950450523071285760e-14
3.851107002325568907e+00 6.711672187252693663e-14
3.931828755705770284e+00 6.478932116220272369e-14
4.014242490499322358e+00 6.254262752331057592e-14
4.098383671757261482e+00 6.037384228377308551e-14
4.184288507901579912e+00 5.814663848717638401e-14
4.271993966306776969e+00 5.545874392594370410e-14
4.361537789208005833e+00 5.289510035084300272e-14
4.452958509942654963e+00 5.044996411858696938e-14
4.546295469532399380e+00 4.871813249353584480e-14
4.641588833612777520e+00 4.733908338800872522e-14
4.738879609717651320e+00 4.599907059890274153e-14
4.838209664925956943e+00 4.469698913728447328e-14
4.939621743878320537e+00 4.282493118852467674e-14
5.043159487171358535e+00 4.083508379866635906e-14
5.148867450137492696e+00 3.893769406197963492e-14
5.256791122018424467e+00 3.743021882419152057e-14
5.366976945540476329e+00 3.612022761195167665e-14
5.479472336900286678e+00 3.485608376662693716e-14
5.594325706169377632e+00 3.363618271176426229e-14
5.711586478126428723e+00 3.240187224962574079e-14
5.831305113526224382e+00 3.116656340762266344e-14
5.953533130814370189e+00 2.997835023723320848e-14
6.078323128297229871e+00 2.883543723419996758e-14
6.205728806776500406e+00 2.773307878096618739e-14
6.335804992658247592e+00 2.665385269965712883e-14
6.468607661546327492e+00 2.561662444137283344e-14
6.604193962330305645e+00 2.461975967094558310e-14
6.742622241778342129e+00 2.366168765296678058e-14
6.883952069645496330e+00 2.272131515926504026e-14
7.028244264308345812e+00 2.181405186597009618e-14
7.175560918936928267e+00 2.094301564305328619e-14
7.325965428215230446e+00 2.010675994171471399e-14
7.479522515621821022e+00 1.929450663050685915e-14
7.636298261282241207e+00 1.851211296518242451e-14
7.796360130405228794e+00 1.776144542062702762e-14
7.959777002314985417e+00 1.704121750030623985e-14
8.126619200091946382e+00 1.636128131476218649e-14
8.296958520834905926e+00 1.571140916158379800e-14
8.470868266557403103e+00 1.508735001212747356e-14
8.648423275731717652e+00 1.448807857063647546e-14
8.829699955494092478e+00 1.391429060605875766e-14
9.014776314524917566e+00 1.044474928268699524e-14
9.203731996618220279e+00 1.013840157831274223e-14
9.396648314954690662e+00 9.841318068511586605e-15
9.593608287093147169e+00 9.553835809442846295e-15
9.794696670695396179e+00 9.362587769127355911e-15
1.000000000000000000e+01 9.180203651930479593e-15
1.020960662306046451e+01 8.950995853540790793e-15
1.042360673976401131e+01 8.688582250784605847e-15
1.064209244064724658e+01 8.431867941158655095e-15
1.086515774652538369e+01 8.172497375251120313e-15
1.109289864895222699e+01 7.921105241990822149e-15
1.132541315152811556e+01 7.685074704747405949e-15
1.156280131207375383e+01 7.458404949216371374e-15
1.180516528568805512e+01 7.229721623749373022e-15
1.205260936870842592e+01 6.993279737839189246e-15
1.230524004359261525e+01 6.764570482356894027e-15
1.256316602474120181e+01 6.557657774057055383e-15
1.282649830528059809e+01 6.360540797552751192e-15
1.309535020482667633e+01 5.631042443784603228e-15
1.336983741824946570e+01 4.828143153538558478e-15
1.365007806546013747e+01 4.291350608108823219e-15
1.393619274224142046e+01 4.016127442967819080e-15
1.422830457214351974e+01 3.761875291022386179e-15
1.452653925946781222e+01 3.555841005662911796e-15
1.483102514336104427e+01 3.368360765406640472e-15
1.514189325304351996e+01 3.200317165488054460e-15
1.545927736419476872e+01 3.088003629796348678e-15
1.578331405652116537e+01 2.984857877563818195e-15
1.611414277253019733e+01 2.895122827775952893e-15
1.645190587753662470e+01 2.864500980243097077e-15
1.679674872092653004e+01 2.836170654512874028e-15
1.714881969870539180e+01 2.808120519769312880e-15
1.750827031735725114e+01 2.781172761511878829e-15
1.787525525904235479e+01 2.793326661321546906e-15
1.824993244816152327e+01 2.824432993448763286e-15
1.863246311931559873e+01 2.855885723980353033e-15
1.902301188668943865e+01 2.887688710389926873e-15
1.942174681489026611e+01 2.927432858041600541e-15
1.982883949127071332e+01 2.991524497656920727e-15
2.024446509976803910e+01 3.058441414788658836e-15
2.066880249629081945e+01 3.126855185381541422e-15
2.110203428568594219e+01 3.196799292303282080e-15
2.154434690031884614e+01 3.300032264561407230e-15
2.199593068030074861e+01 3.269584913124375591e-15
2.245697995539773828e+01 3.239275707495022717e-15
2.292769312865648601e+01 3.224777435547971954e-15
2.340827276178291783e+01 3.210344054616220036e-15
2.389892566231050353e+01 3.195975274262102646e-15
2.439986297259550341e+01 3.181670805347928425e-15
2.491130026067788350e+01 3.172867371384797103e-15
2.543345761304648178e+01 3.168737923270567884e-15
2.596655972934869894e+01 3.164613849582601527e-15
2.651083601908538867e+01 3.160495143326134256e-15
2.706652070033241131e+01 3.156381797515545980e-15
2.763385290053169996e+01 3.149452492495076595e-15
2.821307675939470627e+01 3.141259879388628963e-15
2.880444153396297935e+01 3.133088577576658796e-15
2.940820170587063842e+01 3.124938531622499646e-15
3.002461709085549302e+01 3.116809686233651758e-15
3.065395295056526592e+01 3.107949632322186031e-15
3.129648010670750580e+01 1.188955301357583622e-16
3.195247505759213524e+01 1.242172418730761937e-16
3.262222009711669557e+01 1.296920396264195559e-16
3.330600343624588788e+01 1.353886852953762526e-16
3.400411932703705986e+01 1.405355258541270450e-16
3.471686818926559681e+01 1.454989909001035872e-16
3.544455673970435328e+01 1.519594060600904555e-16
3.618749812411280686e+01 1.603566193469925770e-16
3.694601205199302285e+01 1.687090138131903856e-16
3.772042493416997644e+01 1.766036555724460694e-16
